"M.Z","Intensity"
1000.1335,5.2591904
1000.7179,5.4264512
1001.3025,6.3267978
1001.8872,7.251631
1002.4721,7.1523432
1003.0572,6.5901797
1003.6425,6.6215124
1004.2279,7.3873623
1004.8135,8.8693912
1005.3992,11.242756
1005.9851,14.984865
1006.5712,18.598829
1007.1575,21.287822
1007.744,23.315132
1008.3306,24.370585
1008.9174,24.725628
1009.5043,24.52178
1010.0914,23.886449
1010.6787,23.182448
1011.2662,22.932109
1011.8538,22.156878
1012.4416,19.916233
1013.0296,16.991237
1013.6178,14.791323
1014.2061,13.19208
1014.7946,10.965938
1015.3832,8.1189994
1015.9721,4.9056695
1016.5611,2.573248
1017.1502,1.2046346
1017.7396,0.42102817
1018.3291,-0.61856223
1018.9188,-2.0288462
1019.5087,-2.7377974
1020.0987,-2.4332609
1020.6889,-1.4984059
1021.2793,-0.82195027
1021.8698,0.14405844
1022.4605,2.5364439
1023.0514,5.262346
1023.6424,7.6212787
1024.2337,9.8295116
1024.8251,11.686972
1025.4166,14.62609
1026.0084,17.911574
1026.6003,20.940122
1027.1923,24.032152
1027.7846,27.74863
1028.377,30.586815
1028.9696,32.423534
1029.5624,33.46879
1030.1553,33.543794
1030.7484,31.915216
1031.3417,28.820931
1031.9351,24.817038
1032.5287,20.79863
1033.1225,16.791278
1033.7165,12.704581
1034.3106,9.6875427
1034.9049,6.8137139
1035.4994,4.0570309
1036.094,2.4379975
1036.6888,1.6118886
1037.2838,1.4299217
1037.879,1.1260382
1038.4743,1.1859812
1039.0698,1.5373498
1039.6654,2.2310671
1040.2613,2.4435199
1040.8573,2.3867048
1041.4535,2.5285011
1042.0498,3.0405705
1042.6463,3.5573183
1043.243,3.2760815
1043.8399,2.80678
1044.4369,2.5949296
1045.0341,3.4571868
1045.6315,3.7368104
1046.229,3.0440384
1046.8267,3.2544338
1047.4246,4.3829473
1048.0227,5.4555432
1048.6209,7.779082
1049.2193,11.075246
1049.8179,13.450263
1050.4166,15.781524
1051.0155,19.430983
1051.6146,22.134397
1052.2138,23.448091
1052.8133,25.232928
1053.4129,25.627789
1054.0126,23.584157
1054.6126,20.814685
1055.2127,18.245017
1055.8129,15.741264
1056.4134,12.763323
1057.014,10.415942
1057.6148,8.2223915
1058.2158,6.1131483
1058.8169,5.90111
1059.4182,5.4675095
1060.0197,3.68259
1060.6213,2.1407493
1061.2231,1.1882958
1061.8251,0.59517237
1062.4273,0.60050384
1063.0296,0.59550041
1063.6321,0.71372258
1064.2347,1.1859045
1064.8376,1.1043137
1065.4406,1.7124804
1066.0438,3.1086426
1066.6471,5.3937014
1067.2506,8.131805
1067.8543,10.429915
1068.4582,11.92838
1069.0622,12.315607
1069.6664,12.148257
1070.2708,12.629322
1070.8754,12.556208
1071.4801,11.70004
1072.085,11.374887
1072.69,11.483932
1073.2952,11.420032
1073.9006,10.945718
1074.5062,9.4583515
1075.112,8.3397078
1075.7179,8.0676788
1076.324,6.7296824
1076.9302,4.8517011
1077.5366,4.0969257
1078.1432,3.6266402
1078.75,2.370679
1079.3569,1.0906785
1079.964,0.85815226
1080.5713,1.3937868
1081.1788,2.0288969
1081.7864,3.0618528
1082.3942,4.6038874
1083.0021,6.147067
1083.6103,7.0210576
1084.2186,7.5913197
1084.8271,8.3661686
1085.4357,9.0498521
1086.0445,9.3759411
1086.6535,9.0519812
1087.2627,8.0930364
1087.872,7.578838
1088.4815,7.1750197
1089.0912,6.574069
1089.701,5.5956799
1090.311,4.9589507
1090.9212,5.3438496
1091.5316,5.73948
1092.1421,5.5297317
1092.7528,5.0902988
1093.3636,5.0125009
1093.9747,5.982541
1094.5859,6.9117215
1095.1973,7.9060543
1095.8088,9.4171259
1096.4205,10.412282
1097.0324,11.149912
1097.6445,11.555042
1098.2567,11.579982
1098.8691,11.557404
1099.4817,11.419496
1100.0944,11.157193
1100.7074,11.083448
1101.3204,11.19375
1101.9337,11.538243
1102.5471,11.084026
1103.1607,10.430083
1103.7745,10.078255
1104.3884,9.7438592
1105.0025,8.8143925
1105.6168,7.4613887
1106.2313,5.4416619
1106.8459,3.4339606
1107.4607,2.3534809
1108.0757,2.2669672
1108.6908,2.6046523
1109.3061,2.5360651
1109.9216,2.4745448
1110.5372,2.9067319
1111.153,2.7561991
1111.769,2.4786866
1112.3852,3.1267824
1113.0015,3.7958134
1113.618,3.5475642
1114.2347,3.3234497
1114.8515,3.3074374
1115.4686,2.9786977
1116.0857,2.6939692
1116.7031,2.6738571
1117.3206,3.0508989
1117.9383,3.7307896
1118.5562,4.9031623
1119.1742,6.3367222
1119.7924,7.4475805
1120.4108,8.4567984
1121.0294,9.280501
1121.6481,9.8922219
1122.267,10.405192
1122.8861,10.844148
1123.5053,10.702101
1124.1247,10.61251
1124.7443,11.257281
1125.364,12.687075
1125.9839,12.815722
1126.604,11.225734
1127.2243,10.170567
1127.8447,9.3107843
1128.4653,7.3338522
1129.0861,4.6424853
1129.707,2.8393649
1130.3282,1.8239688
1130.9494,0.072024925
1131.5709,-1.3923369
1132.1925,-1.9660906
1132.8143,-2.5425428
1133.4363,-3.0518034
1134.0584,-3.1816127
1134.6807,-3.2568464
1135.3032,-3.1645389
1135.9259,-2.5938624
1136.5487,-2.2347083
1137.1717,-1.4391658
1137.7948,0.64837603
1138.4182,3.0571673
1139.0417,6.0130462
1139.6654,9.5590369
1140.2892,13.335795
1140.9132,17.338101
1141.5374,20.844434
1142.1618,23.727715
1142.7863,26.302524
1143.411,27.504568
1144.0359,27.283665
1144.6609,26.28344
1145.2861,24.616803
1145.9115,20.759525
1146.5371,16.284729
1147.1628,12.727539
1147.7887,10.122048
1148.4148,7.7266564
1149.041,4.9920476
1149.6674,2.4882266
1150.294,0.47381329
1150.9207,-0.96453236
1151.5476,-2.0428056
1152.1747,-2.7725429
1152.802,-3.3536437
1153.4294,-3.8312942
1154.057,-4.0565628
1154.6848,-4.3968838
1155.3128,-4.4739482
1155.9409,-3.643465
1156.5692,-2.5528024
1157.1976,-1.5830844
1157.8263,-0.36073682
1158.4551,0.77303058
1159.084,1.9107578
1159.7132,2.9867202
1160.3425,3.4549065
1160.972,4.0787365
1161.6016,4.9625044
1162.2314,6.0147227
1162.8614,7.6049222
1163.4916,8.8283223
1164.1219,9.2044607
1164.7524,10.105672
1165.3831,10.509741
1166.014,10.502728
1166.645,10.035836
1167.2762,8.2912775
1167.9075,6.3095567
1168.5391,4.5634243
1169.1708,3.1201557
1169.8027,2.4991704
1170.4347,1.7697969
1171.0669,0.32766731
1171.6993,-1.2137351
1172.3319,-2.1356997
1172.9646,-2.8290502
1173.5975,-3.4983674
1174.2306,-3.5355929
1174.8638,-3.5699677
1175.4972,-3.8312064
1176.1308,-3.9694014
1176.7645,-4.2032552
1177.3985,-4.3999172
1178.0326,-4.3742865
1178.6668,-3.3639035
1179.3013,-2.2034319
1179.9359,-1.9051012
1180.5707,-1.8491874
1181.2056,-1.2739167
1181.8407,-0.046810958
1182.476,1.202196
1183.1115,1.4793739
1183.7471,2.0477477
1184.3829,3.406601
1185.0189,4.3585736
1185.655,5.7207695
1186.2913,6.9374568
1186.9278,7.5249618
1187.5645,8.2432513
1188.2013,9.3911516
1188.8383,9.7487276
1189.4755,9.3690431
1190.1128,8.4393102
1190.7503,7.3208297
1191.388,5.9947716
1192.0259,4.245445
1192.6639,2.7524572
1193.3021,1.3677264
1193.9404,0.028626025
1194.579,-1.1398621
1195.2177,-2.6393621
1195.8566,-3.8327662
1196.4956,-4.6373174
1197.1348,-5.1157559
1197.7742,-5.5684138
1198.4138,-5.5944576
1199.0535,-5.0551204
1199.6934,-4.3956588
1200.3335,-3.9862712
1200.9737,-3.3605694
1201.6141,-2.2885289
1202.2547,-1.3239075
1202.8955,-1.0494043
1203.5364,-0.82475672
1204.1775,0.3218018
1204.8188,1.7274275
1205.4602,2.6948279
1206.1018,3.8224222
1206.7436,4.608473
1207.3856,4.5929401
1208.0277,5.2116018
1208.67,6.8327635
1209.3124,8.0801573
1209.9551,8.6770431
1210.5979,8.3656059
1211.2408,7.5924052
1211.884,6.7616559
1212.5273,5.9070224
1213.1708,5.0818282
1213.8145,3.6838612
1214.4583,1.9963531
1215.1023,1.3079129
1215.7465,0.59150637
1216.3908,-0.25264313
1217.0353,-1.2697218
1217.68,-2.0356707
1218.3249,-2.0860161
1218.9699,-1.868996
1219.6151,-1.7321801
1220.2604,-1.8650794
1220.906,-1.7438583
1221.5517,-1.3861959
1222.1976,-1.3143995
1222.8436,-1.7447759
1223.4898,-1.8196181
1224.1362,-1.1783528
1224.7828,-0.34096891
1225.4295,-0.15980626
1226.0764,-0.11288396
1226.7235,0.90107574
1227.3708,2.38106
1228.0182,2.9898774
1228.6658,3.0624938
1229.3135,3.9652833
1229.9615,5.5208083
1230.6096,7.1095714
1231.2578,8.4522321
1231.9063,8.4464422
1232.5549,8.67769
1233.2037,9.1659894
1233.8526,8.6467734
1234.5017,7.5488301
1235.151,6.7765881
1235.8005,6.4132812
1236.4501,5.7689194
1237.0999,4.3370152
1237.7499,2.564614
1238.4001,0.99957567
1239.0504,-0.020852943
1239.7009,-0.66222999
1240.3516,-1.6098402
1241.0024,-2.4916482
1241.6534,-2.4708524
1242.3046,-2.0691056
1242.9559,-1.8746651
1243.6074,-2.6086656
1244.2591,-3.1710221
1244.911,-2.426208
1245.563,-1.0473632
1246.2152,0.38643002
1246.8676,1.4896139
1247.5201,2.3772112
1248.1728,3.2332372
1248.8257,3.6509605
1249.4788,4.0202027
1250.132,4.7566737
1250.7854,5.7898243
1251.4389,7.4253895
1252.0927,9.6475929
1252.7466,11.224402
1253.4007,12.092728
1254.0549,12.216917
1254.7093,12.304404
1255.3639,11.833323
1256.0187,10.818578
1256.6736,9.9602962
1257.3287,8.6151085
1257.984,7.2736659
1258.6394,6.4668023
1259.2951,5.682818
1259.9508,4.4879455
1260.6068,2.8951944
1261.2629,1.9046136
1261.9192,1.5036377
1262.5757,0.82948175
1263.2323,0.31045067
1263.8891,-0.1620674
1264.5461,-0.8200113
1265.2033,-0.84105302
1265.8606,-1.1704182
1266.5181,-1.7156324
1267.1758,-0.97891089
1267.8336,-0.046923669
1268.4916,0.31513843
1269.1498,0.93971764
1269.8081,1.820254
1270.4666,2.7242482
1271.1253,2.8824689
1271.7842,3.3471196
1272.4432,4.8862447
1273.1024,6.3994908
1273.7618,8.1879506
1274.4213,9.7579551
1275.0811,10.86221
1275.7409,12.001619
1276.401,13.090213
1277.0612,13.422926
1277.7216,12.5487
1278.3822,11.149283
1279.0429,9.8996287
1279.7038,8.1504616
1280.3649,5.6654029
1281.0262,4.0148855
1281.6876,3.0131974
1282.3492,2.0343291
1283.011,0.86632252
1283.6729,-0.1854835
1284.335,-0.65307268
1284.9973,-1.1545499
1285.6597,-1.6839427
1286.3223,-2.2375626
1286.9851,-2.3160158
1287.6481,-1.8145727
1288.3112,-1.2845939
1288.9745,-0.2651
1289.638,0.95194967
1290.3016,1.7001153
1290.9655,2.0487295
1291.6294,3.0496051
1292.2936,4.2518621
1292.9579,5.334576
1293.6224,6.1163285
1294.2871,6.3369552
1294.9519,6.2632967
1295.6169,6.5602931
1296.2821,6.2170507
1296.9475,5.3775007
1297.613,4.7538116
1298.2787,4.6725824
1298.9445,4.141809
1299.6106,3.2359678
1300.2768,2.5427701
1300.9432,2.1247771
1301.6097,2.0414338
1302.2764,1.6751868
1302.9433,1.3858403
1303.6104,0.8092368
1304.2776,0.4822064
1304.945,-0.0081249098
1305.6126,-0.072644167
1306.2803,0.62246639
1306.9482,0.83745748
1307.6163,0.97991346
1308.2846,1.0619255
1308.953,1.2665489
1309.6216,1.3461546
1310.2903,1.515572
1310.9593,1.7321464
1311.6284,0.97783693
1312.2977,0.52964134
1312.9671,0.93900661
1313.6367,1.0458033
1314.3065,0.89697087
1314.9765,1.4914578
1315.6466,1.935886
1316.3169,2.3478633
1316.9874,2.6136344
1317.6581,2.5002972
1318.3289,2.8004811
1318.9999,3.4736934
1319.671,4.3329606
1320.3424,5.0309307
1321.0138,5.3997406
1321.6855,5.4478139
1322.3574,4.7462761
1323.0294,3.848447
1323.7016,3.6952551
1324.3739,3.277611
1325.0464,2.6736674
1325.7191,2.5547244
1326.392,2.2311052
1327.065,1.1572876
1327.7382,0.030218088
1328.4116,-0.6623981
1329.0852,-1.2717954
1329.7589,-1.2599808
1330.4328,-1.3327924
1331.1068,-1.7139692
1331.7811,-1.7405869
1332.4555,-1.4635745
1333.1301,-1.3112189
1333.8048,-0.95918459
1334.4797,-0.32371289
1335.1548,-0.21377336
1335.8301,-0.42536661
1336.5055,0.070020428
1337.1811,0.77733546
1337.8569,0.97661223
1338.5328,0.76897555
1339.2089,0.68112349
1339.8852,0.68743348
1340.5616,0.31498412
1341.2383,0.23086228
1341.9151,0.72823492
1342.592,1.0191213
1343.2692,1.3580325
1343.9465,1.8307696
1344.6239,2.2000145
1345.3016,1.9804716
1345.9794,2.1204434
1346.6574,2.3990478
1347.3356,2.0763139
1348.0139,1.4327927
1348.6924,1.5930109
1349.3711,2.4247977
1350.0499,2.9119159
1350.7289,2.3591367
1351.4081,1.6945163
1352.0875,1.3366002
1352.767,0.50708657
1353.4467,-0.24471253
1354.1266,-0.44627529
1354.8066,-0.85557962
1355.4868,-1.5427215
1356.1672,-2.0049527
1356.8478,-2.0683868
1357.5285,-2.0376887
1358.2094,-1.9683138
1358.8904,-1.8168143
1359.5717,-1.5559814
1360.2531,-1.3229388
1360.9347,-1.1246371
1361.6164,-0.61160109
1362.2983,0.036888845
1362.9804,1.0887886
1363.6627,2.4169486
1364.3451,3.6905358
1365.0277,5.2602717
1365.7105,6.4086832
1366.3934,7.4930905
1367.0765,8.4790241
1367.7598,9.0097302
1368.4433,8.5814616
1369.1269,7.1314219
1369.8107,6.3869818
1370.4947,5.7917806
1371.1788,4.6052688
1371.8631,2.9661207
1372.5476,1.6753803
1373.2322,1.2453823
1373.9171,0.29665364
1374.6021,-1.0559351
1375.2872,-1.6544074
1375.9726,-2.0711394
1376.6581,-2.3060535
1377.3437,-2.4035845
1378.0296,-2.2778089
1378.7156,-1.9684116
1379.4018,-2.0188898
1380.0882,-2.1416318
1380.7747,-1.3560122
1381.4614,-0.47351409
1382.1483,-0.092443327
1382.8353,0.10072375
1383.5225,0.36732047
1384.2099,0.9563922
1384.8974,1.3963325
1385.5852,1.1269339
1386.2731,1.2471365
1386.9611,1.7659304
1387.6494,2.2142883
1388.3378,2.3854885
1389.0264,2.7574946
1389.7151,3.2591133
1390.404,3.5961221
1391.0931,3.2356834
1391.7824,2.3905154
1392.4718,1.9515392
1393.1614,1.6492753
1393.8512,1.2818384
1394.5412,0.36690834
1395.2313,-0.57586272
1395.9216,-0.91399759
1396.612,-1.0550538
1397.3026,-1.4724149
1397.9934,-1.9300661
1398.6844,-2.4474067
1399.3756,-2.4998649
1400.0669,-2.6664483
1400.7584,-2.817729
1401.45,-2.5750135
1402.1418,-2.6738654
1402.8338,-2.3383803
1403.526,-1.8809905
1404.2183,-1.5175094
1404.9108,-1.2950402
1405.6035,-1.0173125
1406.2964,-0.23504435
1406.9894,0.64464194
1407.6826,1.3172695
1408.3759,1.7669692
1409.0695,2.2384748
1409.7632,2.9906178
1410.4571,3.8750869
1411.1511,4.1575408
1411.8453,3.7211976
1412.5397,3.1721217
1413.2343,3.1151193
1413.929,3.0403066
1414.6239,2.5703168
1415.319,1.7953551
1416.0142,1.3113718
1416.7096,0.75770987
1417.4052,-0.20579657
1418.1009,-1.072845
1418.7969,-1.5033916
1419.493,-1.5460993
1420.1892,-1.3905893
1420.8857,-1.5976833
1421.5823,-2.0737053
1422.2791,-2.3433364
1422.976,-1.8769357
1423.6731,-1.2728828
1424.3704,-1.0144496
1425.0679,-0.99863299
1425.7655,-0.8007451
1426.4633,-0.28821836
1427.1613,0.42110974
1427.8594,1.1255
1428.5577,1.2072709
1429.2562,1.2690727
1429.9549,1.5035651
1430.6537,1.9159483
1431.3527,2.5335743
1432.0519,3.1676896
1432.7512,3.683228
1433.4507,4.3132553
1434.1504,4.5230912
1434.8503,4.4203457
1435.5503,4.3264889
1436.2505,4.5298305
1436.9508,4.2758485
1437.6514,3.2142536
1438.3521,2.4910952
1439.053,2.1727243
1439.754,1.9922613
1440.4552,1.2513643
1441.1566,0.71654498
1441.8582,0.17611691
1442.5599,-0.22269386
1443.2618,-0.17771533
1443.9639,-0.17561798
1444.6661,-0.47402579
1445.3685,-0.77843595
1446.0711,-0.8909349
1446.7739,-0.41840295
1447.4768,0.16357573
1448.1799,0.702876
1448.8832,1.2758049
1449.5866,1.1728239
1450.2902,1.1564639
1450.994,1.6867622
1451.698,2.1771163
1452.4021,2.9405699
1453.1064,3.8861753
1453.8108,4.6450012
1454.5155,5.1755797
1455.2203,5.4931568
1455.9253,6.3034007
1456.6304,6.7509423
1457.3357,6.6782831
1458.0412,6.3735807
1458.7469,6.2272652
1459.4527,5.6945809
1460.1587,4.520793
1460.8649,3.4879217
1461.5712,2.7152268
1462.2777,1.8737748
1462.9844,0.92650184
1463.6913,0.43475752
1464.3983,0.084979368
1465.1055,-0.16523968
1465.8129,-0.067498314
1466.5204,0.063203794
1467.2281,0.11247014
1467.936,0.34725771
1468.644,0.88488818
1469.3523,1.2066159
1470.0607,1.804407
1470.7692,2.2370396
1471.478,2.485776
1472.1869,2.73442
1472.8959,2.8437546
1473.6052,3.139812
1474.3146,3.3209571
1475.0242,3.6704573
1475.734,4.4808086
1476.4439,5.2914103
1477.154,6.9093863
1477.8643,8.0200549
1478.5747,8.1573438
1479.2853,7.9956005
1479.9961,7.5951259
1480.707,7.4998528
1481.4182,7.1799612
1482.1295,6.8701778
1482.8409,5.8928574
1483.5526,4.3723913
1484.2644,3.0112245
1484.9764,2.304791
1485.6885,2.0168553
1486.4008,1.6954907
1487.1133,1.426203
1487.826,1.0077959
1488.5388,0.88452973
1489.2518,0.94070489
1489.965,1.1116165
1490.6783,0.78358754
1491.3919,0.58365943
1492.1055,1.2303192
1492.8194,1.8620938
1493.5334,1.862748
1494.2476,2.6462422
1494.962,3.8879726
1495.6765,4.8220772
1496.3913,5.6596463
1497.1061,6.5553544
1497.8212,7.0501454
1498.5364,7.4944219
1499.2518,8.4936787
1499.9674,9.6586786
1500.6831,9.9061328
1501.399,9.6567844
1502.1151,8.9814391
1502.8314,7.8885801
1503.5478,6.5405989
1504.2644,5.8478548
1504.9811,5.4258368
1505.6981,4.4295014
1506.4152,3.0492482
1507.1324,1.834568
1507.8499,0.93519757
1508.5675,0.028796083
1509.2853,-0.14184783
1510.0032,0.049888607
1510.7214,0.17699467
1511.4397,0.20501573
1512.1581,-0.0023907158
1512.8768,0.59331912
1513.5956,1.4231177
1514.3146,2.0678929
1515.0337,2.9569904
1515.753,3.8112575
1516.4725,3.8380799
1517.1922,4.2430146
1517.912,5.1313725
1518.632,5.9864477
1519.3522,6.022451
1520.0726,5.8386157
1520.7931,5.8425498
1521.5138,5.5000562
1522.2346,5.2107428
1522.9557,5.2221046
1523.6769,5.1333646
1524.3983,5.0363352
1525.1198,4.5750767
1525.8415,3.7592174
1526.5634,2.813826
1527.2855,2.4920201
1528.0077,2.3767063
1528.7301,1.8095464
1529.4526,1.1370577
1530.1754,1.0393395
1530.8983,0.76695383
1531.6214,0.49998307
1532.3446,0.41430835
1533.0681,0.34172071
1533.7916,0.60142714
1534.5154,0.74297999
1535.2393,1.0084264
1535.9635,1.4963056
1536.6877,1.5345691
1537.4122,1.5764824
1538.1368,1.9293311
1538.8616,2.7483087
1539.5865,3.2099004
1540.3117,3.6146473
1541.037,3.8545248
1541.7625,4.0017221
1542.4881,4.0934761
1543.2139,3.9700518
1543.9399,3.8967873
1544.6661,3.9055371
1545.3924,4.0910773
1546.1189,4.1496379
1546.8455,3.634245
1547.5724,2.7838207
1548.2994,2.2517953
1549.0266,2.1348923
1549.7539,1.952679
1550.4814,1.8159649
1551.2091,1.1224874
1551.937,0.53594884
1552.665,0.27407396
1553.3932,0.1899289
1554.1216,0.13670205
1554.8502,-0.2706277
1555.5789,-0.39392968
1556.3078,-0.05312145
1557.0368,0.34927871
1557.7661,0.44197189
1558.4955,0.82429266
1559.225,1.2575335
1559.9548,1.2796178
1560.6847,1.1228601
1561.4148,1.3260914
1562.145,1.3374651
1562.8755,1.5838011
1563.606,1.6150873
1564.3368,1.8325775
1565.0678,2.2575349
1565.7989,1.9357289
1566.5301,1.8484739
1567.2616,2.2526601
1567.9932,2.567983
1568.725,2.9802499
1569.457,2.7885008
1570.1891,2.3083438
1570.9214,2.26394
1571.6539,2.092336
1572.3865,1.6958808
1573.1193,1.4779009
1573.8523,1.5900712
1574.5855,1.221138
1575.3188,0.75786683
1576.0523,0.61208809
1576.786,0.45862228
1577.5198,-0.15898653
1578.2538,-0.77788646
1578.988,-0.54829615
1579.7224,-0.31988365
1580.4569,-0.29341312
1581.1916,-0.19387075
1581.9265,0.55699373
1582.6615,0.63670121
1583.3967,0.06974412
1584.1321,0.066805221
1584.8676,0.41105444
1585.6034,0.8252297
1586.3393,1.4608508
1587.0753,2.1541608
1587.8116,2.2413913
1588.548,2.6310473
1589.2845,2.4835272
1590.0213,2.8209958
1590.7582,3.4460375
1591.4953,3.4658497
1592.2325,3.1880401
1592.97,2.8952798
1593.7076,2.2030308
1594.4453,1.6678745
1595.1833,1.2130836
1595.9214,0.78378097
1596.6597,0.75394331
1597.3981,0.30750435
1598.1367,-0.22154817
1598.8755,-0.47210714
1599.6145,-0.35356479
1600.3536,-0.47417719
1601.093,-0.85964741
1601.8324,-0.89101175
1602.5721,-0.24111377
1603.3119,0.058226654
1604.0519,-0.067905048
1604.792,0.14259284
1605.5324,0.45602224
1606.2729,0.49569019
1607.0136,0.037538751
1607.7544,-0.0406964
1608.4954,0.48897267
1609.2366,0.92390122
1609.978,1.4528159
1610.7195,1.6920642
1611.4612,1.6775858
1612.2031,1.4753856
1612.9451,1.7304881
1613.6873,1.3495979
1614.4297,0.79218257
1615.1722,0.96905477
1615.915,1.4596981
1616.6579,1.2339894
1617.4009,0.71536423
1618.1442,0.21467154
1618.8876,0.0032814164
1619.6311,-0.25354826
1620.3749,-0.63574745
1621.1188,-0.88340812
1621.8629,-0.81515909
1622.6072,-0.5743477
1623.3516,-0.59308355
1624.0962,-0.88279884
1624.841,-1.1664879
