"M.Z","Intensity"
1000.1335,0.57800629
1000.7179,1.0186351
1001.3025,1.3451095
1001.8872,1.680489
1002.4721,2.3909642
1003.0572,3.3323639
1003.6425,3.9552733
1004.2279,4.1343003
1004.8135,4.2959601
1005.3992,4.8109237
1005.9851,5.744723
1006.5712,6.4615352
1007.1575,7.3381741
1007.744,7.9523826
1008.3306,8.1503466
1008.9174,8.1989112
1009.5043,7.6985287
1010.0914,6.9155944
1010.6787,5.8417517
1011.2662,4.9385697
1011.8538,4.1375631
1012.4416,3.1053783
1013.0296,2.2426534
1013.6178,1.665101
1014.2061,1.1271492
1014.7946,0.65345905
1015.3832,0.10638292
1015.9721,-0.37674112
1016.5611,-0.67541836
1017.1502,-0.97063303
1017.7396,-1.0718698
1018.3291,-1.1523361
1018.9188,-1.3281926
1019.5087,-1.4483911
1020.0987,-1.1842314
1020.6889,-0.77465209
1021.2793,-0.24485808
1021.8698,0.25055899
1022.4605,0.67264441
1023.0514,1.434722
1023.6424,2.5106348
1024.2337,3.5223369
1024.8251,4.2617563
1025.4166,4.9808566
1026.0084,5.5720774
1026.6003,6.1355103
1027.1923,6.6842398
1027.7846,6.7560029
1028.377,6.6338672
1028.9696,6.4372863
1029.5624,6.0834814
1030.1553,5.4570414
1030.7484,5.0279182
1031.3417,4.5620329
1031.9351,3.5145597
1032.5287,2.2535423
1033.1225,1.5639342
1033.7165,1.3145187
1034.3106,0.84528606
1034.9049,0.13807688
1035.4994,-0.15084686
1036.094,-0.22822944
1036.6888,-0.40347651
1037.2838,-0.30502094
1037.879,0.14107019
1038.4743,0.51204896
1039.0698,0.80181553
1039.6654,0.82063369
1040.2613,1.11481
1040.8573,1.594494
1041.4535,1.8276273
1042.0498,2.0264034
1042.6463,2.1743052
1043.243,1.8952206
1043.8399,1.4637715
1044.4369,1.4353525
1045.0341,1.8423044
1045.6315,1.7433162
1046.229,1.8612623
1046.8267,2.1976385
1047.4246,2.3369069
1048.0227,2.546359
1048.6209,2.8675127
1049.2193,3.2102539
1049.8179,3.4521442
1050.4166,3.6694719
1051.0155,3.8491594
1051.6146,4.0868837
1052.2138,4.2188959
1052.8133,4.1370657
1053.4129,4.0956365
1054.0126,4.1740628
1054.6126,3.8150427
1055.2127,3.0581814
1055.8129,2.6125971
1056.4134,2.4687025
1057.014,2.4263657
1057.6148,2.4745514
1058.2158,2.2359947
1058.8169,1.9727025
1059.4182,1.8394906
1060.0197,1.3774236
1060.6213,0.92488615
1061.2231,0.6116915
1061.8251,0.50040803
1062.4273,0.44550084
1063.0296,0.21574386
1063.6321,0.2599745
1064.2347,0.46858981
1064.8376,0.64612931
1065.4406,1.153303
1066.0438,1.7938349
1066.6471,2.376961
1067.2506,2.8656128
1067.8543,3.3782323
1068.4582,3.9095352
1069.0622,4.3094582
1069.6664,4.4468487
1070.2708,4.4041725
1070.8754,4.4562393
1071.4801,4.5910716
1072.085,4.3462157
1072.69,3.7101769
1073.2952,3.2999727
1073.9006,3.2556361
1074.5062,3.3867439
1075.112,3.1996117
1075.7179,2.5604679
1076.324,1.8025622
1076.9302,1.3460038
1077.5366,0.95710537
1078.1432,1.0089184
1078.75,1.0186634
1079.3569,0.96116175
1079.964,1.1331434
1080.5713,1.3895543
1081.1788,1.5908145
1081.7864,1.795791
1082.3942,2.2404671
1083.0021,2.7280778
1083.6103,2.9857357
1084.2186,3.5744592
1084.8271,4.0634025
1085.4357,4.1471233
1086.0445,4.3667275
1086.6535,4.3249903
1087.2627,4.2150329
1087.872,4.1673687
1088.4815,4.0092961
1089.0912,3.7929249
1089.701,3.6331819
1090.311,3.2962649
1090.9212,3.1159393
1091.5316,2.6834343
1092.1421,2.0991216
1092.7528,2.0364557
1093.3636,1.9095001
1093.9747,1.6895543
1094.5859,1.9081916
1095.1973,2.5204613
1095.8088,3.0993243
1096.4205,3.673112
1097.0324,4.1341291
1097.6445,4.6765824
1098.2567,5.1111772
1098.8691,5.536343
1099.4817,5.828139
1100.0944,5.9940866
1100.7074,6.0976521
1101.3204,6.0648727
1101.9337,5.9868477
1102.5471,5.9787659
1103.1607,5.936429
1103.7745,5.5763299
1104.3884,5.2582148
1105.0025,4.7751797
1105.6168,4.3626348
1106.2313,3.8144401
1106.8459,3.2796658
1107.4607,2.764018
1108.0757,2.1829537
1108.6908,1.7595005
1109.3061,1.6390648
1109.9216,1.7769709
1110.5372,2.1448874
1111.153,2.4826143
1111.769,2.1495222
1112.3852,2.318916
1113.0015,2.3781747
1113.618,1.9426404
1114.2347,1.679256
1114.8515,1.7189286
1115.4686,1.7293621
1116.0857,1.4715241
1116.7031,1.2481239
1117.3206,1.2865084
1117.9383,1.6978404
1118.5562,2.1998005
1119.1742,2.7412918
1119.7924,3.3364858
1120.4108,4.2385997
1121.0294,4.8929787
1121.6481,5.2980675
1122.267,5.7490148
1122.8861,5.8995885
1123.5053,5.6669965
1124.1247,5.8766463
1124.7443,6.3120631
1125.364,6.4615248
1125.9839,6.2784763
1126.604,5.9651877
1127.2243,5.1774253
1127.8447,4.449187
1128.4653,3.6998752
1129.0861,2.9087489
1129.707,2.0843083
1130.3282,1.2682391
1130.9494,0.49908418
1131.5709,-0.077240928
1132.1925,-0.28062507
1132.8143,-0.56717673
1133.4363,-0.78534845
1134.0584,-0.83856059
1134.6807,-0.79123802
1135.3032,-0.88282833
1135.9259,-0.62839742
1136.5487,-0.29597637
1137.1717,0.0033081423
1137.7948,0.589345
1138.4182,1.2702714
1139.0417,2.0150856
1139.6654,3.167445
1140.2892,5.138397
1140.9132,7.2237669
1141.5374,9.2046915
1142.1618,11.251799
1142.7863,12.551887
1143.411,12.820381
1144.0359,12.473891
1144.6609,11.857213
1145.2861,10.909518
1145.9115,9.6542451
1146.5371,7.5862154
1147.1628,5.8545145
1147.7887,4.775379
1148.4148,3.6326128
1149.041,2.371345
1149.6674,1.4156792
1150.294,0.95609142
1150.9207,0.56161372
1151.5476,-0.24030213
1152.1747,-0.74459198
1152.802,-0.93228585
1153.4294,-1.0824828
1154.057,-1.4402478
1154.6848,-1.6356047
1155.3128,-1.5109938
1155.9409,-1.3190719
1156.5692,-0.96343586
1157.1976,-0.8251591
1157.8263,-0.7787936
1158.4551,-0.74874268
1159.084,-0.37881157
1159.7132,0.24924392
1160.3425,0.44611747
1160.972,0.31026822
1161.6016,0.64567743
1162.2314,1.4449653
1162.8614,2.2047252
1163.4916,2.7343216
1164.1219,3.1636533
1164.7524,3.9215403
1165.3831,4.2033423
1166.014,3.7860943
1166.645,3.7207385
1167.2762,3.689921
1167.9075,3.1862604
1168.5391,2.6278972
1169.1708,2.2632368
1169.8027,1.7232966
1170.4347,1.2399024
1171.0669,0.75412794
1171.6993,0.15593034
1172.3319,-0.50021832
1172.9646,-0.9649901
1173.5975,-1.292745
1174.2306,-1.6301849
1174.8638,-1.891029
1175.4972,-2.0546535
1176.1308,-2.0325925
1176.7645,-2.1900546
1177.3985,-2.1276231
1178.0326,-2.0973809
1178.6668,-1.9029443
1179.3013,-1.7679717
1179.9359,-1.4801265
1180.5707,-0.87255386
1181.2056,-0.3055107
1181.8407,-0.25146788
1182.476,-0.14601038
1183.1115,0.28347561
1183.7471,0.6205677
1184.3829,0.93357336
1185.0189,1.2658949
1185.655,1.7113315
1186.2913,2.2531994
1186.9278,2.7698179
1187.5645,2.6966928
1188.2013,2.7747957
1188.8383,3.1383002
1189.4755,3.5850727
1190.1128,3.7229584
1190.7503,3.3794533
1191.388,2.6903865
1192.0259,2.0380177
1192.6639,1.5435153
1193.3021,0.93808888
1193.9404,0.31678106
1194.579,-0.38115625
1195.2177,-1.1445232
1195.8566,-1.3813361
1196.4956,-1.4996261
1197.1348,-1.8780213
1197.7742,-2.0158264
1198.4138,-2.0119134
1199.0535,-2.0804055
1199.6934,-2.0884113
1200.3335,-1.9173438
1200.9737,-1.6574421
1201.6141,-1.4372149
1202.2547,-1.2167827
1202.8955,-0.83252921
1203.5364,-0.44383794
1204.1775,-0.25093001
1204.8188,-0.12509574
1205.4602,0.092850739
1206.1018,0.511356
1206.7436,0.78638214
1207.3856,1.0141035
1208.0277,1.7224004
1208.67,2.435672
1209.3124,2.8852596
1209.9551,3.1045041
1210.5979,3.1846151
1211.2408,3.4849664
1211.884,3.6566311
1212.5273,3.3190874
1213.1708,2.763267
1213.8145,2.0298424
1214.4583,1.4485024
1215.1023,1.037408
1215.7465,0.58496712
1216.3908,0.044542052
1217.0353,-0.3208339
1217.68,-0.49088281
1218.3249,-0.68594556
1218.9699,-0.89190008
1219.6151,-1.0322684
1220.2604,-1.0452466
1220.906,-1.030422
1221.5517,-1.1408364
1222.1976,-1.2343083
1222.8436,-1.225053
1223.4898,-0.93947507
1224.1362,-0.64671338
1224.7828,-0.27259288
1225.4295,0.27844475
1226.0764,0.56163413
1226.7235,0.47522652
1227.3708,0.44243106
1228.0182,0.85911215
1228.6658,1.4256325
1229.3135,1.7202457
1229.9615,2.0343281
1230.6096,2.4100118
1231.2578,2.8342704
1231.9063,3.2676235
1232.5549,3.4019225
1233.2037,3.21712
1233.8526,3.1870211
1234.5017,2.9333724
1235.151,2.330693
1235.8005,1.7767662
1236.4501,1.1507186
1237.0999,0.46087202
1237.7499,0.23263915
1238.4001,-0.15757832
1239.0504,-0.62570851
1239.7009,-0.603065
1240.3516,-0.73879361
1241.0024,-1.0661025
1241.6534,-1.0668528
1242.3046,-0.97162384
1242.9559,-1.1222315
1243.6074,-1.1316892
1244.2591,-1.0367551
1244.911,-0.69380594
1245.563,-0.16106457
1246.2152,0.15698605
1246.8676,0.3316465
1247.5201,0.7311663
1248.1728,1.0633555
1248.8257,1.4291391
1249.4788,1.6329398
1250.132,1.7693588
1250.7854,1.8471053
1251.4389,2.09077
1252.0927,2.5558299
1252.7466,2.7353316
1253.4007,2.6866581
1254.0549,2.9284383
1254.7093,3.1232252
1255.3639,3.2270941
1256.0187,3.1177663
1256.6736,2.9246665
1257.3287,2.6182672
1257.984,2.1508074
1258.6394,1.5321363
1259.2951,1.1849818
1259.9508,0.8587922
1260.6068,0.52671852
1261.2629,0.12266067
1261.9192,-0.19849653
1262.5757,-0.45333122
1263.2323,-0.44450009
1263.8891,-0.32236788
1264.5461,-0.042155122
1265.2033,0.042437382
1265.8606,0.054027688
1266.5181,0.18504858
1267.1758,0.23195148
1267.8336,0.19233795
1268.4916,0.32105596
1269.1498,0.66009119
1269.8081,0.8451937
1270.4666,0.86371244
1271.1253,0.92109858
1271.7842,1.2248954
1272.4432,1.7020198
1273.1024,1.9739139
1273.7618,1.8861588
1274.4213,1.825274
1275.0811,1.8978101
1275.7409,2.1170211
1276.401,2.3023427
1277.0612,2.18437
1277.7216,2.3293763
1278.3822,2.385237
1279.0429,2.1870191
1279.7038,1.7917363
1280.3649,1.1963773
1281.0262,1.0529675
1281.6876,0.7405886
1282.3492,0.16447637
1283.011,-0.073185493
1283.6729,-0.12746964
1284.335,-0.36690809
1284.9973,-0.67974408
1285.6597,-0.63873925
1286.3223,-0.38901009
1286.9851,-0.625182
1287.6481,-0.53046289
1288.3112,-0.073874957
1288.9745,0.10423159
1289.638,0.33240535
1290.3016,0.7410181
1290.9655,1.0991172
1291.6294,1.4413976
1292.2936,1.6904967
1292.9579,2.0953108
1293.6224,2.4902347
1294.2871,2.6305512
1294.9519,2.5484545
1295.6169,2.5524673
1296.2821,2.5177215
1296.9475,2.4012314
1297.613,2.1248701
1298.2787,1.8045744
1298.9445,1.4684715
1299.6106,1.1997783
1300.2768,1.1542626
1300.9432,0.82859356
1301.6097,0.48916482
1302.2764,0.40045102
1302.9433,0.69414836
1303.6104,0.87022711
1304.2776,0.79727278
1304.945,0.72306981
1305.6126,0.50255441
1306.2803,0.59856911
1306.9482,0.76612981
1307.6163,0.95847209
1308.2846,1.270184
1308.953,1.3623342
1309.6216,1.6319814
1310.2903,1.6609306
1310.9593,1.557365
1311.6284,1.4767822
1312.2977,1.5367067
1312.9671,1.5427507
1313.6367,1.5527168
1314.3065,1.4869001
1314.9765,1.2740066
1315.6466,1.079136
1316.3169,0.96030506
1316.9874,0.97613545
1317.6581,1.0076578
1318.3289,1.2060801
1318.9999,1.4737934
1319.671,1.8756803
1320.3424,2.1132254
1321.0138,2.2629198
1321.6855,2.3182814
1322.3574,2.2801488
1323.0294,2.2800336
1323.7016,2.4073349
1324.3739,2.4595915
1325.0464,2.1190113
1325.7191,1.7391601
1326.392,1.6494777
1327.065,1.5243855
1327.7382,1.3567262
1328.4116,1.131862
1329.0852,1.0795859
1329.7589,0.96906712
1330.4328,0.68892044
1331.1068,0.49371538
1331.7811,0.58040322
1332.4555,0.58977135
1333.1301,0.579135
1333.8048,0.85676814
1334.4797,1.0817264
1335.1548,1.2087741
1335.8301,1.2784044
1336.5055,1.4035363
1337.1811,1.3718247
1337.8569,1.2073249
1338.5328,0.88935679
1339.2089,0.79121895
1339.8852,0.83231191
1340.5616,0.73501583
1341.2383,0.69458854
1341.9151,0.80959136
1342.592,1.02291
1343.2692,1.0638399
1343.9465,0.97026005
1344.6239,1.1930868
1345.3016,1.5968483
1345.9794,1.9002744
1346.6574,2.0201795
1347.3356,1.9040106
1348.0139,1.9697073
1348.6924,2.2281909
1349.3711,2.3906236
1350.0499,2.2560267
1350.7289,2.0880296
1351.4081,2.0140853
1352.0875,1.9772639
1352.767,1.6914374
1353.4467,1.2862528
1354.1266,0.8391204
1354.8066,0.3641985
1355.4868,0.14363286
1356.1672,0.20201478
1356.8478,-0.016143376
1357.5285,-0.22265531
1358.2094,-0.27714207
1358.8904,-0.19304622
1359.5717,-0.19610099
1360.2531,-0.039494653
1360.9347,-0.020607751
1361.6164,0.1157536
1362.2983,0.5225873
1362.9804,0.92323137
1363.6627,1.3682736
1364.3451,2.0783785
1365.0277,2.6152298
1365.7105,3.2233635
1366.3934,3.5854425
1367.0765,3.9820153
1367.7598,4.2757275
1368.4433,3.9666184
1369.1269,3.6439194
1369.8107,3.3064608
1370.4947,2.8129362
1371.1788,2.282091
1371.8631,1.8287369
1372.5476,1.5539043
1373.2322,1.1815861
1373.9171,0.96075115
1374.6021,0.76045767
1375.2872,0.38639171
1375.9726,-0.057386016
1376.6581,-0.41531611
1377.3437,-0.75608574
1378.0296,-0.8495898
1378.7156,-0.78948566
1379.4018,-0.74266924
1380.0882,-0.71484506
1380.7747,-0.51534044
1381.4614,-0.41005489
1382.1483,-0.64683959
1382.8353,-0.72669517
1383.5225,-0.50861425
1384.2099,-0.18561934
1384.8974,-0.077557312
1385.5852,0.049945006
1386.2731,0.39501008
1386.9611,0.58273094
1387.6494,0.92708769
1388.3378,1.3096999
1389.0264,1.6482475
1389.7151,1.7186422
1390.404,1.7976982
1391.0931,1.8156552
1391.7824,1.542941
1392.4718,1.1640832
1393.1614,1.080298
1393.8512,1.041971
1394.5412,0.86009732
1395.2313,0.62874615
1395.9216,0.42099135
1396.612,0.1706636
1397.3026,0.071301835
1397.9934,-0.0055861874
1398.6844,-0.36872661
1399.3756,-0.53317707
1400.0669,-0.51508416
1400.7584,-0.47103928
1401.45,-0.59703086
1402.1418,-0.7849179
1402.8338,-0.69553513
1403.526,-0.45565173
1404.2183,-0.18771115
1404.9108,-0.036168528
1405.6035,-0.0043505331
1406.2964,-0.08219315
1406.9894,0.084618044
1407.6826,0.49661347
1408.3759,0.68867489
1409.0695,0.65947872
1409.7632,0.75196578
1410.4571,1.0346964
1411.1511,1.1443958
1411.8453,1.1554689
1412.5397,1.060988
1413.2343,1.2810753
1413.929,1.4447879
1414.6239,1.2857537
1415.319,1.0706587
1416.0142,0.91432925
1416.7096,0.58122851
1417.4052,0.3211176
1418.1009,0.13236409
1418.7969,-0.16363842
1419.493,-0.12229836
1420.1892,-0.24021831
1420.8857,-0.57381983
1421.5823,-0.82172938
1422.2791,-0.96277704
1422.976,-0.9584405
1423.6731,-0.7655806
1424.3704,-0.59706656
1425.0679,-0.56659895
1425.7655,-0.75856756
1426.4633,-0.64261059
1427.1613,-0.060990968
1427.8594,0.52514548
1428.5577,0.6311941
1429.2562,0.28971899
1429.9549,0.12639729
1430.6537,0.40038127
1431.3527,0.7731761
1432.0519,1.073864
1432.7512,1.414397
1433.4507,1.5683475
1434.1504,1.9826907
1434.8503,2.4050099
1435.5503,2.5542838
1436.2505,2.4337509
1436.9508,2.314847
1437.6514,2.0732181
1438.3521,1.6631967
1439.053,1.2453523
1439.754,0.68803753
1440.4552,0.32733793
1441.1566,0.020800665
1441.8582,-0.18386759
1442.5599,-0.39918053
1443.2618,-0.43973097
1443.9639,-0.46816655
1444.6661,-0.57016193
1445.3685,-0.54433962
1446.0711,-0.40486043
1446.7739,-0.5234702
1447.4768,-0.55714328
1448.1799,-0.20601668
1448.8832,0.1219822
1449.5866,0.35607335
1450.2902,0.70833492
1450.994,1.0067636
1451.698,1.0288351
1452.4021,1.2616776
1453.1064,1.4911868
1453.8108,1.5593721
1454.5155,1.5949157
1455.2203,1.7736182
1455.9253,2.1853817
1456.6304,2.414662
1457.3357,2.1702179
1458.0412,1.8761134
1458.7469,1.683868
1459.4527,1.5647847
1460.1587,1.324247
1460.8649,1.0191083
1461.5712,0.69818047
1462.2777,0.56730428
1462.9844,0.43839493
1463.6913,0.31041629
1464.3983,0.041553809
1465.1055,-0.17434061
1465.8129,-0.42074583
1466.5204,-0.6045176
1467.2281,-0.62303247
1467.936,-0.49703209
1468.644,-0.097040783
1469.3523,0.18368384
1470.0607,0.33616167
1470.7692,0.47939418
1471.478,0.52739371
1472.1869,0.72035081
1472.8959,0.81506453
1473.6052,0.91572739
1474.3146,1.2199108
1475.0242,1.535682
1475.734,1.7292379
1476.4439,2.1765175
1477.154,2.5547639
1477.8643,2.6080743
1478.5747,2.7661413
1479.2853,2.9222234
1479.9961,2.6681476
1480.707,2.6536381
1481.4182,2.6337617
1482.1295,2.0530631
1482.8409,1.408974
1483.5526,1.0032726
1484.2644,0.90216096
1484.9764,0.9478782
1485.6885,0.64182112
1486.4008,0.34450364
1487.1133,0.25835173
1487.826,0.1750249
1488.5388,0.03827536
1489.2518,-0.11994968
1489.965,-0.13382254
1490.6783,0.014038805
1491.3919,0.10617373
1492.1055,0.4354822
1492.8194,0.69970114
1493.5334,0.90046466
1494.2476,1.0155074
1494.962,1.1479783
1495.6765,1.305888
1496.3913,1.4966196
1497.1061,1.6446959
1497.8212,1.9437094
1498.5364,2.3806779
1499.2518,2.6970066
1499.9674,2.8872087
1500.6831,2.8551639
1501.399,2.6991207
1502.1151,2.764181
1502.8314,2.7101221
1503.5478,2.2776879
1504.2644,1.8756928
1504.9811,1.4713891
1505.6981,1.0576959
1506.4152,0.71278619
1507.1324,0.55468387
1507.8499,0.45187721
1508.5675,0.10292514
1509.2853,-0.05983155
1510.0032,-0.024534134
1510.7214,0.06939467
1511.4397,0.38882197
1512.1581,0.48539382
1512.8768,0.61809449
1513.5956,0.75297945
1514.3146,0.96946454
1515.0337,1.1023629
1515.753,1.4440893
1516.4725,1.8327482
1517.1922,1.9827057
1517.912,2.0325716
1518.632,2.2614335
1519.3522,2.2430282
1520.0726,2.0697553
1520.7931,2.177125
1521.5138,2.353994
1522.2346,2.2275028
1522.9557,1.8830717
1523.6769,1.621804
1524.3983,1.4326341
1525.1198,1.2782027
1525.8415,1.0503433
1526.5634,0.88451036
1527.2855,0.8502698
1528.0077,0.84956277
1528.7301,0.77765895
1529.4526,0.68349059
1530.1754,0.61083479
1530.8983,0.63859346
1531.6214,0.66160222
1532.3446,0.73655362
1533.0681,0.70525261
1533.7916,0.72694685
1534.5154,0.82547895
1535.2393,0.89186453
1535.9635,0.97087233
1536.6877,1.0305239
1537.4122,1.0692723
1538.1368,1.2182423
1538.8616,1.3112313
1539.5865,1.3313425
1540.3117,1.4590552
1541.037,1.5008495
1541.7625,1.5196602
1542.4881,1.4545728
1543.2139,1.5165651
1543.9399,1.7202797
1544.6661,1.8158994
1545.3924,1.8065178
1546.1189,1.6443698
1546.8455,1.5124015
1547.5724,1.4783734
1548.2994,1.3022722
1549.0266,1.0883751
1549.7539,0.78214255
1550.4814,0.64420533
1551.2091,0.61828678
1551.937,0.70482427
1552.665,0.68584899
1553.3932,0.57062518
1554.1216,0.37351297
1554.8502,0.14499467
1555.5789,0.30213922
1556.3078,0.62646387
1557.0368,0.88646991
1557.7661,0.90963434
1558.4955,0.92080415
1559.225,1.1409948
1559.9548,1.4662658
1560.6847,1.5497748
1561.4148,1.3915332
1562.145,1.2428451
1562.8755,1.2776936
1563.606,1.2002657
1564.3368,0.94498002
1565.0678,0.92779202
1565.7989,1.022285
1566.5301,1.0958288
1567.2616,1.0518586
1567.9932,0.96546293
1568.725,0.90520204
1569.457,0.81617153
1570.1891,0.78783067
1570.9214,0.85688071
1571.6539,0.89270937
1572.3865,0.78617822
1573.1193,0.763163
1573.8523,1.0069393
1574.5855,0.8819834
1575.3188,0.74654179
1576.0523,0.67646068
1576.786,0.67210329
1577.5198,0.67716254
1578.2538,0.56159858
1578.988,0.18689633
1579.7224,-0.02365022
1580.4569,0.11580591
1581.1916,0.17500444
1581.9265,0.225479
1582.6615,0.3816286
1583.3967,0.31105661
1584.1321,0.19863235
1584.8676,0.3800717
1585.6034,0.47340996
1586.3393,0.4204572
1587.0753,0.51652169
1587.8116,0.55186688
1588.548,0.59667812
1589.2845,0.75412165
1590.0213,0.92215715
1590.7582,1.0561756
1591.4953,1.1492347
1592.2325,1.0497497
1592.97,1.0259208
1593.7076,1.0911994
1594.4453,0.78094834
1595.1833,0.41752332
1595.9214,0.44201545
1596.6597,0.48085203
1597.3981,0.44938547
1598.1367,0.29432731
1598.8755,0.098384661
1599.6145,0.028525934
1600.3536,0.088615632
1601.093,0.045737589
1601.8324,-0.098576231
1602.5721,-0.23942913
1603.3119,-0.14281857
1604.0519,-0.13745704
1604.792,-0.011598323
1605.5324,0.14997575
1606.2729,0.21690822
1607.0136,0.20019134
1607.7544,0.22592304
1608.4954,0.28859649
1609.2366,0.37409125
1609.978,0.49125402
1610.7195,0.59042527
1611.4612,0.58574749
1612.2031,0.33867184
1612.9451,0.31650743
1613.6873,0.40296173
1614.4297,0.30538187
1615.1722,0.14726061
1615.915,0.10978315
1616.6579,0.12089448
1617.4009,0.17609507
1618.1442,0.057563544
