"M.Z","Intensity"
1000.1335,2.0023536
1000.7179,2.3970442
1001.3025,2.8363529
1001.8872,3.1988601
1002.4721,3.5482101
1003.0572,3.9367561
1003.6425,4.1178116
1004.2279,4.0337059
1004.8135,4.0940693
1005.3992,4.6410252
1005.9851,5.9020988
1006.5712,7.4149695
1007.1575,8.6671235
1007.744,9.815628
1008.3306,10.973966
1008.9174,11.7497
1009.5043,12.370037
1010.0914,12.643219
1010.6787,12.291708
1011.2662,11.62629
1011.8538,10.649522
1012.4416,9.615355
1013.0296,8.2202727
1013.6178,6.9993589
1014.2061,5.9530656
1014.7946,5.0168727
1015.3832,3.8756222
1015.9721,2.5182834
1016.5611,1.1763992
1017.1502,0.19822274
1017.7396,-0.31894041
1018.3291,-0.74471906
1018.9188,-1.1754374
1019.5087,-1.2549557
1020.0987,-1.2307747
1020.6889,-1.3033391
1021.2793,-1.2501747
1021.8698,-0.54374163
1022.4605,0.75147203
1023.0514,1.937651
1023.6424,2.818125
1024.2337,3.7731642
1024.8251,5.1857525
1025.4166,6.6146458
1026.0084,7.5493441
1026.6003,8.4280337
1027.1923,9.3037977
1027.7846,10.195297
1028.377,11.392532
1028.9696,12.358128
1029.5624,12.930019
1030.1553,13.188841
1030.7484,12.74425
1031.3417,11.857132
1031.9351,10.712908
1032.5287,9.1345306
1033.1225,7.4588222
1033.7165,5.9612876
1034.3106,4.6870889
1034.9049,3.3953269
1035.4994,2.0592121
1036.094,1.324023
1036.6888,1.1359436
1037.2838,0.98675637
1037.879,0.99752615
1038.4743,1.3404379
1039.0698,1.6746216
1039.6654,1.7038457
1040.2613,1.7497934
1040.8573,2.1074987
1041.4535,2.6132292
1042.0498,2.9993832
1042.6463,2.813512
1043.243,2.5624214
1043.8399,2.7667279
1044.4369,3.2139172
1045.0341,3.1542599
1045.6315,2.8984031
1046.229,2.6245031
1046.8267,2.6594634
1047.4246,2.9791088
1048.0227,3.152248
1048.6209,3.3759407
1049.2193,3.9332891
1049.8179,4.5057324
1050.4166,4.9733187
1051.0155,5.8208613
1051.6146,6.9868858
1052.2138,7.9862573
1052.8133,8.7702704
1053.4129,8.9507209
1054.0126,8.6714395
1054.6126,8.2401123
1055.2127,7.9188397
1055.8129,7.4943591
1056.4134,7.0059228
1057.014,6.6215343
1057.6148,5.8449666
1058.2158,4.9182983
1058.8169,4.3522257
1059.4182,4.0205554
1060.0197,3.4665602
1060.6213,2.7178411
1061.2231,2.1749124
1061.8251,1.8034896
1062.4273,1.5881742
1063.0296,1.2041277
1063.6321,0.80806515
1064.2347,1.0170561
1064.8376,1.583679
1065.4406,1.9699734
1066.0438,2.370007
1066.6471,2.9202842
1067.2506,3.270252
1067.8543,3.5241572
1068.4582,4.3262469
1069.0622,5.5217922
1069.6664,6.2379668
1070.2708,6.3502672
1070.8754,6.1030263
1071.4801,5.9674455
1072.085,5.8691232
1072.69,5.6710214
1073.2952,5.4329808
1073.9006,5.154741
1074.5062,5.2145223
1075.112,5.4662168
1075.7179,5.0432169
1076.324,4.3456436
1076.9302,3.540058
1077.5366,2.6030865
1078.1432,2.0276017
1078.75,1.6725782
1079.3569,1.2430737
1079.964,1.1437226
1080.5713,1.6136652
1081.1788,2.1459322
1081.7864,2.7693451
1082.3942,3.3731676
1083.0021,3.9657067
1083.6103,4.8208541
1084.2186,5.4035419
1084.8271,5.6983331
1085.4357,6.0038257
1086.0445,6.0746147
1086.6535,6.163225
1087.2627,6.1407214
1087.872,5.763399
1088.4815,5.19798
1089.0912,5.290685
1089.701,5.3585409
1090.311,4.4943962
1090.9212,3.4821804
1091.5316,2.967685
1092.1421,2.7773387
1092.7528,2.5107116
1093.3636,2.4003042
1093.9747,2.6279257
1094.5859,3.1071962
1095.1973,3.6964141
1095.8088,4.2703508
1096.4205,4.958332
1097.0324,5.5856558
1097.6445,5.9355674
1098.2567,6.3167945
1098.8691,6.8131791
1099.4817,7.1874242
1100.0944,7.3746677
1100.7074,7.6314628
1101.3204,7.9075469
1101.9337,7.906298
1102.5471,7.6469388
1103.1607,7.8550184
1103.7745,8.2348465
1104.3884,8.3088343
1105.0025,7.9308099
1105.6168,7.3025201
1106.2313,6.4682918
1106.8459,5.4126194
1107.4607,4.396965
1108.0757,3.5346328
1108.6908,2.8637109
1109.3061,2.5739987
1109.9216,2.6012546
1110.5372,2.6144853
1111.153,2.6311725
1111.769,2.6350675
1112.3852,2.6315722
1113.0015,2.5570293
1113.618,2.4175964
1114.2347,2.3611888
1114.8515,2.2732641
1115.4686,2.0267737
1116.0857,1.6767435
1116.7031,1.5706657
1117.3206,1.7024799
1117.9383,1.9595711
1118.5562,2.4205507
1119.1742,2.9554471
1119.7924,3.4939175
1120.4108,4.2489588
1121.0294,5.0904639
1121.6481,5.9000538
1122.267,6.5188027
1122.8861,6.9970725
1123.5053,7.5384225
1124.1247,7.7563968
1124.7443,7.6372639
1125.364,7.6896268
1125.9839,7.7224733
1126.604,7.3416281
1127.2243,6.5149919
1127.8447,5.5181467
1128.4653,4.7020001
1129.0861,3.8284891
1129.707,2.7717573
1130.3282,1.7943977
1130.9494,0.83396069
1131.5709,0.21808008
1132.1925,-0.36690506
1132.8143,-0.86881512
1133.4363,-0.97836092
1134.0584,-0.97100553
1134.6807,-0.9828167
1135.3032,-1.1094485
1135.9259,-1.129504
1136.5487,-0.97088779
1137.1717,-0.98387198
1137.7948,-0.55391293
1138.4182,0.4254291
1139.0417,1.5933478
1139.6654,3.2078436
1140.2892,5.1970395
1140.9132,7.1638012
1141.5374,9.4805288
1142.1618,11.901256
1142.7863,13.7403
1143.411,14.896823
1144.0359,15.068239
1144.6609,14.476998
1145.2861,13.489677
1145.9115,11.696493
1146.5371,9.803785
1147.1628,8.4025709
1147.7887,6.908161
1148.4148,4.9021231
1149.041,3.0020092
1149.6674,1.7342793
1150.294,0.92181517
1150.9207,0.31042752
1151.5476,-0.4609414
1152.1747,-1.3034841
1152.802,-1.8806577
1153.4294,-2.2381637
1154.057,-2.4206129
1154.6848,-2.4776549
1155.3128,-2.3677375
1155.9409,-2.0742368
1156.5692,-1.6374719
1157.1976,-1.4166857
1157.8263,-1.2210255
1158.4551,-0.77806266
1159.084,-0.36761761
1159.7132,0.027666251
1160.3425,0.27613756
1160.972,0.2262483
1161.6016,0.6418794
1162.2314,1.5443494
1162.8614,2.3337845
1163.4916,3.0214464
1164.1219,3.6373921
1164.7524,4.0376271
1165.3831,4.2635149
1166.014,4.5066445
1166.645,4.6975459
1167.2762,4.8538643
1167.9075,4.4938243
1168.5391,3.9684051
1169.1708,3.6772733
1169.8027,3.5745751
1170.4347,3.5280135
1171.0669,3.2170488
1171.6993,2.5747718
1172.3319,1.7734491
1172.9646,1.1049866
1173.5975,0.45812729
1174.2306,-0.32174788
1174.8638,-1.0006068
1175.4972,-1.5001813
1176.1308,-1.9123039
1176.7645,-2.2460818
1177.3985,-2.4246765
1178.0326,-2.485225
1178.6668,-2.347172
1179.3013,-2.0272052
1179.9359,-1.7093151
1180.5707,-1.5364212
1181.2056,-1.281199
1181.8407,-0.8088877
1182.476,-0.3420509
1183.1115,-0.11932093
1183.7471,0.007952809
1184.3829,0.36783164
1185.0189,1.0095633
1185.655,1.5917632
1186.2913,2.2558472
1186.9278,2.8459175
1187.5645,3.0632917
1188.2013,3.1377667
1188.8383,3.5344023
1189.4755,3.9548327
1190.1128,3.9367094
1190.7503,3.5099719
1191.388,3.0069869
1192.0259,2.3748292
1192.6639,1.4013918
1193.3021,0.4854425
1193.9404,0.02106753
1194.579,-0.3524986
1195.2177,-0.95713048
1195.8566,-1.652995
1196.4956,-2.3595749
1197.1348,-2.6711714
1197.7742,-2.7782284
1198.4138,-2.9214474
1199.0535,-3.1313205
1199.6934,-3.0884238
1200.3335,-2.7894067
1200.9737,-2.4996002
1201.6141,-2.312131
1202.2547,-1.9965537
1202.8955,-1.4940056
1203.5364,-0.92086179
1204.1775,-0.56367235
1204.8188,-0.38096418
1205.4602,-0.19540578
1206.1018,0.1824066
1206.7436,0.60561063
1207.3856,1.0731954
1208.0277,1.667585
1208.67,2.3857161
1209.3124,3.110981
1209.9551,3.8465491
1210.5979,4.330006
1211.2408,4.3160413
1211.884,4.2711364
1212.5273,3.9337501
1213.1708,3.3162507
1213.8145,2.9898236
1214.4583,2.4895343
1215.1023,1.6805775
1215.7465,0.84328433
1216.3908,0.12379097
1217.0353,-0.16492588
1217.68,-0.41531984
1218.3249,-0.66104979
1218.9699,-0.71856049
1219.6151,-0.73868773
1220.2604,-0.90378821
1220.906,-0.97668091
1221.5517,-1.1655124
1222.1976,-1.3267061
1222.8436,-1.1845561
1223.4898,-1.1141301
1224.1362,-0.82975498
1224.7828,-0.39704584
1225.4295,-0.089506453
1226.0764,0.16565677
1226.7235,0.35482327
1227.3708,0.26390098
1228.0182,0.069211764
1228.6658,0.32369466
1229.3135,1.1346957
1229.9615,1.855877
1230.6096,2.2764641
1231.2578,3.0742581
1231.9063,3.9292991
1232.5549,4.4164713
1233.2037,4.5650735
1233.8526,4.7223349
1234.5017,4.6468176
1235.151,4.2467197
1235.8005,3.7249903
1236.4501,3.1249174
1237.0999,2.5723002
1237.7499,2.2089476
1238.4001,1.6082544
1239.0504,0.69561326
1239.7009,-0.098101034
1240.3516,-0.57914238
1241.0024,-0.85868471
1241.6534,-1.1163698
1242.3046,-1.391303
1242.9559,-1.4265305
1243.6074,-1.3219542
1244.2591,-1.1107734
1244.911,-1.0121707
1245.563,-1.0173885
1246.2152,-0.76109438
1246.8676,-0.10939304
1247.5201,0.5674995
1248.1728,1.1505556
1248.8257,1.7684793
1249.4788,2.2200946
1250.132,2.3675902
1250.7854,2.635372
1251.4389,3.2221526
1252.0927,4.014213
1252.7466,4.6005979
1253.4007,5.1506869
1254.0549,5.7767912
1254.7093,6.1546211
1255.3639,6.5636694
1256.0187,7.1163674
1256.6736,7.0151126
1257.3287,6.121264
1257.984,5.1756213
1258.6394,4.3509975
1259.2951,3.5501149
1259.9508,2.5429851
1260.6068,1.642166
1261.2629,1.3256461
1261.9192,1.0343915
1262.5757,0.59980632
1263.2323,0.32560448
1263.8891,0.062729499
1264.5461,0.14258051
1265.2033,0.46809556
1265.8606,0.5686244
1266.5181,0.4087237
1267.1758,0.30750718
1267.8336,0.36025876
1268.4916,0.64006816
1269.1498,1.0492978
1269.8081,1.3475691
1270.4666,1.593472
1271.1253,1.848625
1271.7842,2.3195371
1272.4432,2.8523933
1273.1024,3.1033788
1273.7618,3.0562144
1274.4213,3.4744388
1275.0811,4.2527306
1275.7409,4.3957677
1276.401,4.5455799
1277.0612,4.9416829
1277.7216,5.2058308
1278.3822,5.3097332
1279.0429,5.1183537
1279.7038,4.5747492
1280.3649,3.740103
1281.0262,3.1190205
1281.6876,2.6755438
1282.3492,2.0763185
1283.011,1.2656382
1283.6729,0.69666504
1284.335,0.395037
1284.9973,0.070849721
1285.6597,-0.16957195
1286.3223,-0.41285151
1286.9851,-0.48168043
1287.6481,-0.23875031
1288.3112,0.069811477
1288.9745,0.27976174
1289.638,0.40996581
1290.3016,0.61660507
1290.9655,0.82066854
1291.6294,1.3482276
1292.2936,2.0088115
1292.9579,2.456835
1293.6224,2.7858512
1294.2871,3.0923861
1294.9519,3.3858773
1295.6169,3.4714109
1296.2821,3.2891871
1296.9475,3.1964293
1297.613,3.1732346
1298.2787,3.0069557
1298.9445,2.726613
1299.6106,2.5479274
1300.2768,2.4701253
1300.9432,2.4969811
1301.6097,2.433591
1302.2764,2.086833
1302.9433,1.6857357
1303.6104,1.5540411
1304.2776,1.5512957
1304.945,1.5094168
1305.6126,1.4645193
1306.2803,1.3684493
1306.9482,1.1636573
1307.6163,0.91932211
1308.2846,0.95030964
1308.953,1.2142699
1309.6216,1.4786118
1310.2903,1.5353904
1310.9593,1.5858036
1311.6284,1.644359
1312.2977,1.5473074
1312.9671,1.5795279
1313.6367,1.6333415
1314.3065,1.6875763
1314.9765,1.4270741
1315.6466,1.1402537
1316.3169,1.2977346
1316.9874,1.5197584
1317.6581,1.6377103
1318.3289,1.7744457
1318.9999,2.0748015
1319.671,2.3082479
1320.3424,2.4243578
1321.0138,2.5851089
1321.6855,2.8960065
1322.3574,3.1975813
1323.0294,3.5051257
1323.7016,3.5545804
1324.3739,3.2519618
1325.0464,3.0532826
1325.7191,2.9412306
1326.392,2.7808589
1327.065,2.5621043
1327.7382,2.1140045
1328.4116,1.620411
1329.0852,1.4596027
1329.7589,1.2268561
1330.4328,0.7060393
1331.1068,0.41481145
1331.7811,0.47302351
1332.4555,0.57136203
1333.1301,0.44796024
1333.8048,0.36875922
1334.4797,0.53029657
1335.1548,0.8834012
1335.8301,1.220783
1336.5055,1.3340211
1337.1811,1.1826698
1337.8569,1.1935487
1338.5328,1.3021892
1339.2089,1.1201543
1339.8852,0.79161569
1340.5616,0.53112887
1341.2383,0.67145614
1341.9151,1.0222939
1342.592,1.0948732
1343.2692,1.2625347
1343.9465,1.5890033
1344.6239,2.0322479
1345.3016,2.2682216
1345.9794,2.3047474
1346.6574,2.3055645
1347.3356,2.4745701
1348.0139,2.8054716
1348.6924,2.9807406
1349.3711,3.0359837
1350.0499,2.8479395
1350.7289,2.5849356
1351.4081,2.3369627
1352.0875,2.0984071
1352.767,1.7523434
1353.4467,1.1778511
1354.1266,0.85821804
1354.8066,0.56464542
1355.4868,0.17555275
1356.1672,-0.18753438
1356.8478,-0.23935643
1357.5285,-0.39709361
1358.2094,-0.72410686
1358.8904,-0.82991845
1359.5717,-0.49443465
1360.2531,-0.12054115
1360.9347,-0.030274642
1361.6164,-0.060091403
1362.2983,0.20128793
1362.9804,0.79002912
1363.6627,1.3035375
1364.3451,2.1116347
1365.0277,2.8600457
1365.7105,3.5025186
1366.3934,4.3363635
1367.0765,4.9887426
1367.7598,5.3803743
1368.4433,5.5761143
1369.1269,5.1975138
1369.8107,4.5911342
1370.4947,3.9212762
1371.1788,3.0870398
1371.8631,2.2895065
1372.5476,1.7852089
1373.2322,1.2228578
1373.9171,0.78908699
1374.6021,0.35806683
1375.2872,-0.075527836
1375.9726,-0.29047622
1376.6581,-0.50276967
1377.3437,-0.70327676
1378.0296,-0.82485328
1378.7156,-1.0553726
1379.4018,-1.1521868
1380.0882,-1.0844284
1380.7747,-1.1618029
1381.4614,-1.0755341
1382.1483,-0.67875462
1382.8353,-0.47300246
1383.5225,-0.51166984
1384.2099,-0.28114259
1384.8974,0.10721262
1385.5852,0.24728206
1386.2731,0.51729757
1386.9611,0.93012154
1387.6494,1.1223833
1388.3378,1.3562816
1389.0264,1.7237688
1389.7151,2.048144
1390.404,2.4186537
1391.0931,2.4563118
1391.7824,2.4591647
1392.4718,2.4176024
1393.1614,2.0498449
1393.8512,1.6984523
1394.5412,1.2482553
1395.2313,0.71178723
1395.9216,0.26970954
1396.612,0.0016063875
1397.3026,-0.22768245
1397.9934,-0.35642728
1398.6844,-0.48856991
1399.3756,-0.70441689
1400.0669,-0.86531956
1400.7584,-0.88771401
1401.45,-0.96130904
1402.1418,-1.015472
1402.8338,-0.98261711
1403.526,-0.87267986
1404.2183,-0.64385917
1404.9108,-0.25744793
1405.6035,0.24269773
1406.2964,0.64589885
1406.9894,0.68577019
1407.6826,0.59358043
1408.3759,0.80934729
1409.0695,0.99912009
1409.7632,1.0925508
1410.4571,1.1527349
1411.1511,1.3226634
1411.8453,1.4301487
1412.5397,1.7301713
1413.2343,2.0183769
1413.929,2.1303449
1414.6239,1.8682702
1415.319,1.4539621
1416.0142,1.0376347
1416.7096,0.68689681
1417.4052,0.57373438
1418.1009,0.43508334
1418.7969,0.18894846
1419.493,-0.097282255
1420.1892,-0.48747647
1420.8857,-0.71260932
1421.5823,-0.85299755
1422.2791,-0.95170593
1422.976,-0.9989495
1423.6731,-0.82496684
1424.3704,-0.81368674
1425.0679,-0.86343047
1425.7655,-0.8509097
1426.4633,-0.92314886
1427.1613,-0.70969708
1427.8594,-0.32311703
1428.5577,0.18334335
1429.2562,0.53275565
1429.9549,0.45612181
1430.6537,0.51961597
1431.3527,0.98728628
1432.0519,1.4034497
1432.7512,1.6964996
1433.4507,1.954267
1434.1504,2.3742149
1434.8503,3.1871641
1435.5503,3.6323274
1436.2505,3.4933538
1436.9508,3.1939343
1437.6514,3.0692985
1438.3521,2.9603026
1439.053,2.3087449
1439.754,1.6742438
1440.4552,1.4236137
1441.1566,1.2819392
1441.8582,0.93508446
1442.5599,0.43406382
1443.2618,-0.0091444402
1443.9639,-0.3683752
1444.6661,-0.46220482
1445.3685,-0.37090154
1446.0711,-0.63759394
1446.7739,-0.94058102
1447.4768,-0.88856688
1448.1799,-0.67012307
1448.8832,-0.46212794
1449.5866,-0.090058101
1450.2902,0.39585464
1450.994,0.7055668
1451.698,1.1003133
1452.4021,1.4549921
1453.1064,1.7041629
1453.8108,1.8575469
1454.5155,2.251502
1455.2203,2.7267108
1455.9253,2.9845433
1456.6304,3.2923689
1457.3357,3.3054398
1458.0412,3.0961284
1458.7469,3.073031
1459.4527,3.0238718
1460.1587,2.5435839
1460.8649,1.9294939
1461.5712,1.656519
1462.2777,1.4556369
1462.9844,0.87130764
1463.6913,0.26061284
1464.3983,-0.11192321
1465.1055,-0.22093188
1465.8129,-0.078713926
1466.5204,-0.15903531
1467.2281,-0.27291348
1467.936,-0.1170086
1468.644,0.0091061838
1469.3523,0.092153651
1470.0607,0.13788658
1470.7692,0.45148923
1471.478,0.856567
1472.1869,1.0737293
1472.8959,1.0829774
1473.6052,1.1987571
1474.3146,1.5142526
1475.0242,1.6437639
1475.734,1.8023633
1476.4439,2.3588538
1477.154,3.042347
1477.8643,3.7651331
1478.5747,4.4856703
1479.2853,4.8139325
1479.9961,4.9517226
1480.707,4.7614871
1481.4182,4.4671808
1482.1295,3.9934881
1482.8409,3.3909176
1483.5526,2.866226
1484.2644,2.3719256
1484.9764,1.7323904
1485.6885,1.0527746
1486.4008,0.72618289
1487.1133,0.5939206
1487.826,0.38438834
1488.5388,0.19047806
1489.2518,0.10708181
1489.965,0.02551082
1490.6783,-0.055165405
1491.3919,-0.057633504
1492.1055,-0.00073582583
1492.8194,0.16033596
1493.5334,0.50190218
1494.2476,1.0118688
1494.962,1.6107961
1495.6765,1.8321961
1496.3913,2.0297808
1497.1061,2.5548525
1497.8212,3.2286003
1498.5364,3.6248326
1499.2518,3.5509162
1499.9674,3.7204034
1500.6831,4.1042468
1501.399,4.4356936
1502.1151,4.7893015
1502.8314,4.8838035
1503.5478,4.3581992
1504.2644,3.889136
1504.9811,3.4693141
1505.6981,2.8812002
1506.4152,2.0544298
1507.1324,1.1749871
1507.8499,0.76243185
1508.5675,0.75899879
1509.2853,0.57655959
1510.0032,0.28844777
1510.7214,0.20317137
1511.4397,0.20894249
1512.1581,0.46164129
1512.8768,0.64353131
1513.5956,0.69011178
1514.3146,0.86438419
1515.0337,1.1214062
1515.753,1.5466844
1516.4725,2.0381891
1517.1922,2.351211
1517.912,2.5224392
1518.632,2.7018708
1519.3522,2.8811416
1520.0726,3.0800577
1520.7931,3.1482133
1521.5138,2.9838761
1522.2346,2.8786903
1522.9557,2.9969449
1523.6769,2.8744676
1524.3983,2.8698653
1525.1198,2.8935445
1525.8415,2.6265317
1526.5634,2.2369824
1527.2855,1.7507758
1528.0077,1.3186863
1528.7301,1.0631484
1529.4526,0.89804414
1530.1754,0.82394142
1530.8983,0.82080449
1531.6214,0.64112361
1532.3446,0.53013905
1533.0681,0.51756435
1533.7916,0.6367495
1534.5154,0.86131498
1535.2393,0.86173539
1535.9635,0.63236136
1536.6877,0.66743372
1537.4122,0.7408226
1538.1368,0.87447968
1538.8616,1.2505128
1539.5865,1.4205003
1540.3117,1.4386551
1541.037,1.5310484
1541.7625,1.7857512
1542.4881,2.0120054
1543.2139,2.2995399
1543.9399,2.3800946
1544.6661,2.3324097
1545.3924,2.2319223
1546.1189,1.8714509
1546.8455,1.7680176
1547.5724,2.0083429
1548.2994,1.8725526
1549.0266,1.5749507
1549.7539,1.4296128
1550.4814,1.1323619
1551.2091,0.8437804
1551.937,0.79020361
1552.665,0.70611938
1553.3932,0.48053245
1554.1216,0.61489156
1554.8502,0.6083632
1555.5789,0.54413733
1556.3078,0.4819767
1557.0368,0.56681879
1557.7661,0.42328837
1558.4955,0.39153179
1559.225,0.63551017
1559.9548,0.75697626
1560.6847,0.64533053
1561.4148,0.58265805
1562.145,0.70794827
1562.8755,0.75336593
1563.606,0.64460616
1564.3368,0.63528374
1565.0678,0.97263653
1565.7989,1.3148678
1566.5301,1.31127
1567.2616,1.2163682
1567.9932,1.0807809
1568.725,1.2024065
1569.457,1.3589752
1570.1891,1.169882
1570.9214,1.0490908
1571.6539,1.0820801
1572.3865,1.063117
1573.1193,1.0571132
1573.8523,0.98456645
1574.5855,0.95090037
1575.3188,0.79647579
1576.0523,0.7170964
1576.786,0.59301972
1577.5198,0.50533473
1578.2538,0.1329978
1578.988,-0.12539028
1579.7224,-0.26724606
1580.4569,-0.29585501
1581.1916,-0.15963873
1581.9265,-0.068736244
1582.6615,-0.14027849
1583.3967,-0.16027168
1584.1321,-0.15819449
1584.8676,-0.20424812
1585.6034,-0.061280915
1586.3393,0.3330763
1587.0753,0.56939367
1587.8116,0.79393233
1588.548,0.98516949
1589.2845,1.2430697
1590.0213,1.4882402
1590.7582,1.8160429
1591.4953,1.7903442
1592.2325,1.6577475
1592.97,1.5634443
1593.7076,1.1265811
1594.4453,0.94014798
1595.1833,0.85000846
1595.9214,0.43251856
1596.6597,0.19975567
1597.3981,0.13142104
1598.1367,-0.13763654
1598.8755,-0.40934267
1599.6145,-0.61861709
1600.3536,-0.75165672
1601.093,-0.77789921
1601.8324,-0.51691141
1602.5721,-0.52146133
1603.3119,-0.86168865
1604.0519,-0.91640883
1604.792,-0.7006886
1605.5324,-0.5366974
1606.2729,-0.30234288
1607.0136,-0.050872994
1607.7544,0.1620736
1608.4954,0.30630727
1609.2366,0.51244294
1609.978,0.81003714
1610.7195,0.97404366
1611.4612,0.98555506
1612.2031,0.88896228
1612.9451,0.91347518
1613.6873,0.98525223
1614.4297,0.92497201
1615.1722,0.80247707
1615.915,0.64602965
1616.6579,0.68256121
1617.4009,0.62939698
1618.1442,0.35716268
1618.8876,0.081968391
1619.6311,-0.0234265
1620.3749,-0.048568459
1621.1188,-0.1706141
